frequency, value
0,0
21.53,0.0007124
43.07,0.001425
64.6,0.002137
86.13,0.002849
107.7,0.003561
129.2,0.004273
150.7,0.004985
172.3,0.005696
193.8,0.006407
215.3,0.007118
236.9,0.007828
258.4,0.008538
279.9,0.009248
301.5,0.009957
323,0.01067
344.5,0.01137
366.1,0.01208
387.6,0.01279
409.1,0.01349
430.7,0.0142
452.2,0.0149
473.7,0.01561
495.3,0.01631
516.8,0.01701
538.3,0.01772
559.9,0.01842
581.4,0.01912
602.9,0.01981
624.5,0.02051
646,0.02121
667.5,0.0219
689.1,0.0226
710.6,0.02329
732.1,0.02398
753.7,0.02468
775.2,0.02537
796.7,0.02605
818.3,0.02674
839.8,0.02743
861.3,0.02811
882.9,0.02879
904.4,0.02948
925.9,0.03016
947.5,0.03083
969,0.03151
990.5,0.03219
1012,0.03286
1034,0.03353
1055,0.0342
1077,0.03487
1098,0.03554
1120,0.0362
1141,0.03687
1163,0.03753
1184,0.03819
1206,0.03884
1227,0.0395
1249,0.04015
1270,0.0408
1292,0.04145
1314,0.0421
1335,0.04275
1357,0.04339
1378,0.04403
1400,0.04467
1421,0.0453
1443,0.04594
1464,0.04657
1486,0.0472
1507,0.04783
1529,0.04845
1550,0.04907
1572,0.04969
1593,0.05031
1615,0.05092
1637,0.05153
1658,0.05214
1680,0.05275
1701,0.05335
1723,0.05396
1744,0.05455
1766,0.05515
1787,0.05574
1809,0.05633
1830,0.05692
1852,0.0575
1873,0.05808
1895,0.05866
1916,0.05924
1938,0.05981
1960,0.06038
1981,0.06095
2003,0.06151
2024,0.06207
2046,0.06263
2067,0.06318
2089,0.06373
2110,0.06428
2132,0.06482
2153,0.06536
2175,0.0659
2196,0.06644
2218,0.06697
2239,0.06749
2261,0.06802
2283,0.06854
2304,0.06905
2326,0.06957
2347,0.07008
2369,0.07058
2390,0.07109
2412,0.07159
2433,0.07208
2455,0.07257
2476,0.07306
2498,0.07355
2519,0.07403
2541,0.0745
2562,0.07498
2584,0.07545
2606,0.07591
2627,0.07638
2649,0.07683
2670,0.07729
2692,0.07774
2713,0.07818
2735,0.07863
2756,0.07906
2778,0.0795
2799,0.07993
2821,0.08035
2842,0.08078
2864,0.08119
2885,0.08161
2907,0.08202
2929,0.08242
2950,0.08282
2972,0.08322
2993,0.08361
3015,0.084
3036,0.08439
3058,0.08477
3079,0.08514
3101,0.08551
3122,0.08588
3144,0.08624
3165,0.0866
3187,0.08696
3208,0.08731
3230,0.08765
3252,0.08799
3273,0.08833
3295,0.08866
3316,0.08899
3338,0.08931
3359,0.08963
3381,0.08994
3402,0.09025
3424,0.09056
3445,0.09086
3467,0.09115
3488,0.09144
3510,0.09173
3531,0.09201
3553,0.09229
3575,0.09256
3596,0.09282
3618,0.09309
3639,0.09335
3661,0.0936
3682,0.09385
3704,0.09409
3725,0.09433
3747,0.09456
3768,0.09479
3790,0.09502
3811,0.09524
3833,0.09545
3854,0.09566
3876,0.09587
3898,0.09607
3919,0.09626
3941,0.09645
3962,0.09664
3984,0.09682
4005,0.097
4027,0.09717
4048,0.09733
4070,0.09749
4091,0.09765
4113,0.0978
4134,0.09795
4156,0.09809
4177,0.09822
4199,0.09835
4221,0.09848
4242,0.0986
4264,0.09872
4285,0.09883
4307,0.09894
4328,0.09904
4350,0.09913
4371,0.09922
4393,0.09931
4414,0.09939
4436,0.09947
4457,0.09954
4479,0.0996
4500,0.09966
4522,0.09972
4544,0.09977
4565,0.09982
4587,0.09986
4608,0.09989
4630,0.09992
4651,0.09995
4673,0.09997
4694,0.09998
4716,0.09999
4737,0.1
4759,0.1
4780,0.09999
4802,0.09998
4823,0.09997
4845,0.09995
4867,0.09992
4888,0.09989
4910,0.09986
4931,0.09982
4953,0.09977
4974,0.09972
4996,0.09966
5017,0.0996
5039,0.09954
5060,0.09947
5082,0.09939
5103,0.09931
5125,0.09922
5146,0.09913
5168,0.09904
5190,0.09894
5211,0.09883
5233,0.09872
5254,0.0986
5276,0.09848
5297,0.09835
5319,0.09822
5340,0.09809
5362,0.09795
5383,0.0978
5405,0.09765
5426,0.09749
5448,0.09733
5469,0.09717
5491,0.097
5512,0.09682
5534,0.09664
5556,0.09645
5577,0.09626
5599,0.09607
5620,0.09587
5642,0.09566
5663,0.09545
5685,0.09524
5706,0.09502
5728,0.09479
5749,0.09456
5771,0.09433
5792,0.09409
5814,0.09385
5835,0.0936
5857,0.09335
5879,0.09309
5900,0.09282
5922,0.09256
5943,0.09229
5965,0.09201
5986,0.09173
6008,0.09144
6029,0.09115
6051,0.09086
6072,0.09056
6094,0.09025
6115,0.08994
6137,0.08963
6158,0.08931
6180,0.08899
6202,0.08866
6223,0.08833
6245,0.08799
6266,0.08765
6288,0.08731
6309,0.08696
6331,0.0866
6352,0.08624
6374,0.08588
6395,0.08551
6417,0.08514
6438,0.08477
6460,0.08439
6481,0.084
6503,0.08361
6525,0.08322
6546,0.08282
6568,0.08242
6589,0.08202
6611,0.08161
6632,0.08119
6654,0.08078
6675,0.08035
6697,0.07993
6718,0.0795
6740,0.07906
6761,0.07863
6783,0.07818
6804,0.07774
6826,0.07729
6848,0.07683
6869,0.07638
6891,0.07591
6912,0.07545
6934,0.07498
6955,0.0745
6977,0.07403
6998,0.07355
7020,0.07306
7041,0.07257
7063,0.07208
7084,0.07159
7106,0.07109
7127,0.07058
7149,0.07008
7171,0.06957
7192,0.06905
7214,0.06854
7235,0.06802
7257,0.06749
7278,0.06697
7300,0.06644
7321,0.0659
7343,0.06536
7364,0.06482
7386,0.06428
7407,0.06373
7429,0.06318
7450,0.06263
7472,0.06207
7494,0.06151
7515,0.06095
7537,0.06038
7558,0.05981
7580,0.05924
7601,0.05866
7623,0.05808
7644,0.0575
7666,0.05692
7687,0.05633
7709,0.05574
7730,0.05515
7752,0.05455
7773,0.05396
7795,0.05335
7817,0.05275
7838,0.05214
7860,0.05153
7881,0.05092
7903,0.05031
7924,0.04969
7946,0.04907
7967,0.04845
7989,0.04783
8010,0.0472
8032,0.04657
8053,0.04594
8075,0.0453
8096,0.04467
8118,0.04403
8140,0.04339
8161,0.04275
8183,0.0421
8204,0.04145
8226,0.0408
8247,0.04015
8269,0.0395
8290,0.03884
8312,0.03819
8333,0.03753
8355,0.03687
8376,0.0362
8398,0.03554
8419,0.03487
8441,0.0342
8463,0.03353
8484,0.03286
8506,0.03219
8527,0.03151
8549,0.03083
8570,0.03016
8592,0.02948
8613,0.02879
8635,0.02811
8656,0.02743
8678,0.02674
8699,0.02605
8721,0.02537
8742,0.02468
8764,0.02398
8786,0.02329
8807,0.0226
8829,0.0219
8850,0.02121
8872,0.02051
8893,0.01981
8915,0.01912
8936,0.01842
8958,0.01772
8979,0.01701
9001,0.01631
9022,0.01561
9044,0.0149
9065,0.0142
9087,0.01349
9109,0.01279
9130,0.01208
9152,0.01137
9173,0.01067
9195,0.009957
9216,0.009248
9238,0.008538
9259,0.007828
9281,0.007118
9302,0.006407
9324,0.005696
9345,0.004985
9367,0.004273
9388,0.003561
9410,0.002849
9432,0.002137
9453,0.001425
9475,0.0007124
9496,5.765e-09
9518,-0.0007124
9539,-0.001425
9561,-0.002137
9582,-0.002849
9604,-0.003561
9625,-0.004273
9647,-0.004985
9668,-0.005696
9690,-0.006407
9711,-0.007118
9733,-0.007828
9755,-0.008538
9776,-0.009248
9798,-0.009957
9819,-0.01067
9841,-0.01137
9862,-0.01208
9884,-0.01279
9905,-0.01349
9927,-0.0142
9948,-0.0149
9970,-0.01561
9991,-0.01631
1.001e+04,-0.01701
1.003e+04,-0.01772
1.006e+04,-0.01842
1.008e+04,-0.01912
1.01e+04,-0.01981
1.012e+04,-0.02051
1.014e+04,-0.02121
1.016e+04,-0.0219
1.019e+04,-0.0226
1.021e+04,-0.02329
1.023e+04,-0.02398
1.025e+04,-0.02468
1.027e+04,-0.02537
1.029e+04,-0.02605
1.031e+04,-0.02674
1.034e+04,-0.02743
1.036e+04,-0.02811
1.038e+04,-0.02879
1.04e+04,-0.02948
1.042e+04,-0.03016
1.044e+04,-0.03083
1.047e+04,-0.03151
1.049e+04,-0.03219
1.051e+04,-0.03286
1.053e+04,-0.03353
1.055e+04,-0.0342
1.057e+04,-0.03487
1.059e+04,-0.03554
1.062e+04,-0.0362
1.064e+04,-0.03687
1.066e+04,-0.03753
1.068e+04,-0.03819
1.07e+04,-0.03884
1.072e+04,-0.0395
1.075e+04,-0.04015
1.077e+04,-0.0408
1.079e+04,-0.04145
1.081e+04,-0.0421
1.083e+04,-0.04275
1.085e+04,-0.04339
1.087e+04,-0.04403
1.09e+04,-0.04467
1.092e+04,-0.0453
1.094e+04,-0.04594
1.096e+04,-0.04657
1.098e+04,-0.0472
1.1e+04,-0.04783
1.102e+04,-0.04845
1.105e+04,-0.04907
1.107e+04,-0.04969
1.109e+04,-0.05031
1.111e+04,-0.05092
1.113e+04,-0.05153
1.115e+04,-0.05214
1.118e+04,-0.05275
1.12e+04,-0.05335
1.122e+04,-0.05396
1.124e+04,-0.05455
1.126e+04,-0.05515
1.128e+04,-0.05574
1.13e+04,-0.05633
1.133e+04,-0.05692
1.135e+04,-0.0575
1.137e+04,-0.05808
1.139e+04,-0.05866
1.141e+04,-0.05924
1.143e+04,-0.05981
1.146e+04,-0.06038
1.148e+04,-0.06095
1.15e+04,-0.06151
1.152e+04,-0.06207
1.154e+04,-0.06263
1.156e+04,-0.06318
1.158e+04,-0.06373
1.161e+04,-0.06428
1.163e+04,-0.06482
1.165e+04,-0.06536
1.167e+04,-0.0659
1.169e+04,-0.06644
1.171e+04,-0.06697
1.174e+04,-0.06749
1.176e+04,-0.06802
1.178e+04,-0.06854
1.18e+04,-0.06905
1.182e+04,-0.06957
1.184e+04,-0.07008
1.186e+04,-0.07058
1.189e+04,-0.07109
1.191e+04,-0.07159
1.193e+04,-0.07208
1.195e+04,-0.07257
1.197e+04,-0.07306
1.199e+04,-0.07355
1.202e+04,-0.07403
1.204e+04,-0.0745
1.206e+04,-0.07498
1.208e+04,-0.07545
1.21e+04,-0.07591
1.212e+04,-0.07638
1.214e+04,-0.07683
1.217e+04,-0.07729
1.219e+04,-0.07774
1.221e+04,-0.07818
1.223e+04,-0.07863
1.225e+04,-0.07906
1.227e+04,-0.0795
1.23e+04,-0.07993
1.232e+04,-0.08035
1.234e+04,-0.08078
1.236e+04,-0.08119
1.238e+04,-0.08161
1.24e+04,-0.08202
1.242e+04,-0.08242
1.245e+04,-0.08282
1.247e+04,-0.08322
1.249e+04,-0.08361
1.251e+04,-0.084
1.253e+04,-0.08439
1.255e+04,-0.08477
1.258e+04,-0.08514
1.26e+04,-0.08551
1.262e+04,-0.08588
1.264e+04,-0.08624
1.266e+04,-0.0866
1.268e+04,-0.08696
1.27e+04,-0.08731
1.273e+04,-0.08765
1.275e+04,-0.08799
1.277e+04,-0.08833
1.279e+04,-0.08866
1.281e+04,-0.08899
1.283e+04,-0.08931
1.286e+04,-0.08963
1.288e+04,-0.08994
1.29e+04,-0.09025
1.292e+04,-0.09056
1.294e+04,-0.09086
1.296e+04,-0.09115
1.298e+04,-0.09144
1.301e+04,-0.09173
1.303e+04,-0.09201
1.305e+04,-0.09229
1.307e+04,-0.09256
1.309e+04,-0.09282
1.311e+04,-0.09309
1.314e+04,-0.09335
1.316e+04,-0.0936
1.318e+04,-0.09385
1.32e+04,-0.09409
1.322e+04,-0.09433
1.324e+04,-0.09456
1.326e+04,-0.09479
1.329e+04,-0.09502
1.331e+04,-0.09524
1.333e+04,-0.09545
1.335e+04,-0.09566
1.337e+04,-0.09587
1.339e+04,-0.09607
1.342e+04,-0.09626
1.344e+04,-0.09645
1.346e+04,-0.09664
1.348e+04,-0.09682
1.35e+04,-0.097
1.352e+04,-0.09717
1.354e+04,-0.09733
1.357e+04,-0.09749
1.359e+04,-0.09765
1.361e+04,-0.0978
1.363e+04,-0.09795
1.365e+04,-0.09809
1.367e+04,-0.09822
1.37e+04,-0.09835
1.372e+04,-0.09848
1.374e+04,-0.0986
1.376e+04,-0.09872
1.378e+04,-0.09883
1.38e+04,-0.09894
1.382e+04,-0.09904
1.385e+04,-0.09913
1.387e+04,-0.09922
1.389e+04,-0.09931
1.391e+04,-0.09939
1.393e+04,-0.09947
1.395e+04,-0.09954
1.398e+04,-0.0996
1.4e+04,-0.09966
1.402e+04,-0.09972
1.404e+04,-0.09977
1.406e+04,-0.09982
1.408e+04,-0.09986
1.41e+04,-0.09989
1.413e+04,-0.09992
1.415e+04,-0.09995
1.417e+04,-0.09997
1.419e+04,-0.09998
1.421e+04,-0.09999
1.423e+04,-0.1
1.425e+04,-0.1
1.428e+04,-0.09999
1.43e+04,-0.09998
1.432e+04,-0.09997
1.434e+04,-0.09995
1.436e+04,-0.09992
1.438e+04,-0.09989
1.441e+04,-0.09986
1.443e+04,-0.09982
1.445e+04,-0.09977
1.447e+04,-0.09972
1.449e+04,-0.09966
1.451e+04,-0.0996
1.453e+04,-0.09954
1.456e+04,-0.09947
1.458e+04,-0.09939
1.46e+04,-0.09931
1.462e+04,-0.09922
1.464e+04,-0.09913
1.466e+04,-0.09904
1.469e+04,-0.09894
1.471e+04,-0.09883
1.473e+04,-0.09872
1.475e+04,-0.0986
1.477e+04,-0.09848
1.479e+04,-0.09835
1.481e+04,-0.09822
1.484e+04,-0.09809
1.486e+04,-0.09795
1.488e+04,-0.0978
1.49e+04,-0.09765
1.492e+04,-0.09749
1.494e+04,-0.09733
1.497e+04,-0.09717
1.499e+04,-0.097
1.501e+04,-0.09682
1.503e+04,-0.09664
1.505e+04,-0.09645
1.507e+04,-0.09626
1.509e+04,-0.09607
1.512e+04,-0.09587
1.514e+04,-0.09566
1.516e+04,-0.09545
1.518e+04,-0.09524
1.52e+04,-0.09502
1.522e+04,-0.09479
1.525e+04,-0.09456
1.527e+04,-0.09433
1.529e+04,-0.09409
1.531e+04,-0.09385
1.533e+04,-0.0936
1.535e+04,-0.09335
1.537e+04,-0.09309
1.54e+04,-0.09282
1.542e+04,-0.09256
1.544e+04,-0.09229
1.546e+04,-0.09201
1.548e+04,-0.09173
1.55e+04,-0.09144
1.553e+04,-0.09115
1.555e+04,-0.09086
1.557e+04,-0.09056
1.559e+04,-0.09025
1.561e+04,-0.08994
1.563e+04,-0.08963
1.565e+04,-0.08931
1.568e+04,-0.08899
1.57e+04,-0.08866
1.572e+04,-0.08833
1.574e+04,-0.08799
1.576e+04,-0.08765
1.578e+04,-0.08731
1.581e+04,-0.08696
1.583e+04,-0.0866
1.585e+04,-0.08624
1.587e+04,-0.08588
1.589e+04,-0.08551
1.591e+04,-0.08514
1.593e+04,-0.08477
1.596e+04,-0.08439
1.598e+04,-0.084
1.6e+04,-0.08361
1.602e+04,-0.08322
1.604e+04,-0.08282
1.606e+04,-0.08242
1.609e+04,-0.08202
1.611e+04,-0.08161
1.613e+04,-0.08119
1.615e+04,-0.08078
1.617e+04,-0.08035
1.619e+04,-0.07993
1.621e+04,-0.0795
1.624e+04,-0.07906
1.626e+04,-0.07863
1.628e+04,-0.07818
1.63e+04,-0.07774
1.632e+04,-0.07729
1.634e+04,-0.07683
1.637e+04,-0.07638
1.639e+04,-0.07591
1.641e+04,-0.07545
1.643e+04,-0.07498
1.645e+04,-0.0745
1.647e+04,-0.07403
1.649e+04,-0.07355
1.652e+04,-0.07306
1.654e+04,-0.07257
1.656e+04,-0.07208
1.658e+04,-0.07159
1.66e+04,-0.07109
1.662e+04,-0.07058
1.665e+04,-0.07008
1.667e+04,-0.06957
1.669e+04,-0.06905
1.671e+04,-0.06854
1.673e+04,-0.06802
1.675e+04,-0.06749
1.677e+04,-0.06697
1.68e+04,-0.06644
1.682e+04,-0.0659
1.684e+04,-0.06536
1.686e+04,-0.06482
1.688e+04,-0.06428
1.69e+04,-0.06373
1.693e+04,-0.06318
1.695e+04,-0.06263
1.697e+04,-0.06207
1.699e+04,-0.06151
1.701e+04,-0.06095
1.703e+04,-0.06038
1.705e+04,-0.05981
1.708e+04,-0.05924
1.71e+04,-0.05866
1.712e+04,-0.05808
1.714e+04,-0.0575
1.716e+04,-0.05692
1.718e+04,-0.05633
1.721e+04,-0.05574
1.723e+04,-0.05515
1.725e+04,-0.05455
1.727e+04,-0.05396
1.729e+04,-0.05335
1.731e+04,-0.05275
1.733e+04,-0.05214
1.736e+04,-0.05153
1.738e+04,-0.05092
1.74e+04,-0.05031
1.742e+04,-0.04969
1.744e+04,-0.04907
1.746e+04,-0.04845
1.748e+04,-0.04783
1.751e+04,-0.0472
1.753e+04,-0.04657
1.755e+04,-0.04594
1.757e+04,-0.0453
1.759e+04,-0.04467
1.761e+04,-0.04403
1.764e+04,-0.04339
1.766e+04,-0.04275
1.768e+04,-0.0421
1.77e+04,-0.04145
1.772e+04,-0.0408
1.774e+04,-0.04015
1.776e+04,-0.0395
1.779e+04,-0.03884
1.781e+04,-0.03819
1.783e+04,-0.03753
1.785e+04,-0.03687
1.787e+04,-0.0362
1.789e+04,-0.03554
1.792e+04,-0.03487
1.794e+04,-0.0342
1.796e+04,-0.03353
1.798e+04,-0.03286
1.8e+04,-0.03219
1.802e+04,-0.03151
1.804e+04,-0.03083
1.807e+04,-0.03016
1.809e+04,-0.02948
1.811e+04,-0.02879
1.813e+04,-0.02811
1.815e+04,-0.02743
1.817e+04,-0.02674
1.82e+04,-0.02605
1.822e+04,-0.02537
1.824e+04,-0.02468
1.826e+04,-0.02398
1.828e+04,-0.02329
1.83e+04,-0.0226
1.832e+04,-0.0219
1.835e+04,-0.02121
1.837e+04,-0.02051
1.839e+04,-0.01981
1.841e+04,-0.01912
1.843e+04,-0.01842
1.845e+04,-0.01772
1.848e+04,-0.01701
1.85e+04,-0.01631
1.852e+04,-0.01561
1.854e+04,-0.0149
1.856e+04,-0.0142
1.858e+04,-0.01349
1.86e+04,-0.01279
1.863e+04,-0.01208
1.865e+04,-0.01137
1.867e+04,-0.01067
1.869e+04,-0.009957
1.871e+04,-0.009248
1.873e+04,-0.008538
1.876e+04,-0.007828
1.878e+04,-0.007118
1.88e+04,-0.006407
1.882e+04,-0.005696
1.884e+04,-0.004985
1.886e+04,-0.004273
1.888e+04,-0.003561
1.891e+04,-0.002849
1.893e+04,-0.002137
1.895e+04,-0.001425
1.897e+04,-0.0007124
1.899e+04,-1.153e-08
1.901e+04,0.0007124
1.904e+04,0.001425
1.906e+04,0.002137
1.908e+04,0.002849
1.91e+04,0.003561
1.912e+04,0.004273
1.914e+04,0.004985
1.916e+04,0.005696
1.919e+04,0.006407
1.921e+04,0.007118
1.923e+04,0.007828
1.925e+04,0.008538
1.927e+04,0.009248
1.929e+04,0.009957
1.932e+04,0.01067
1.934e+04,0.01137
1.936e+04,0.01208
1.938e+04,0.01279
1.94e+04,0.01349
1.942e+04,0.0142
1.944e+04,0.0149
1.947e+04,0.01561
1.949e+04,0.01631
1.951e+04,0.01701
1.953e+04,0.01772
1.955e+04,0.01842
1.957e+04,0.01912
1.96e+04,0.01981
1.962e+04,0.02051
1.964e+04,0.02121
1.966e+04,0.0219
1.968e+04,0.0226
1.97e+04,0.02329
1.972e+04,0.02398
1.975e+04,0.02468
1.977e+04,0.02537
1.979e+04,0.02605
1.981e+04,0.02674
1.983e+04,0.02743
1.985e+04,0.02811
1.988e+04,0.02879
1.99e+04,0.02948
1.992e+04,0.03016
1.994e+04,0.03083
1.996e+04,0.03151
1.998e+04,0.03219
2e+04,0.03286
2.003e+04,0.03353
2.005e+04,0.0342
2.007e+04,0.03487
2.009e+04,0.03554
2.011e+04,0.0362
2.013e+04,0.03687
2.016e+04,0.03753
2.018e+04,0.03819
2.02e+04,0.03884
2.022e+04,0.0395
2.024e+04,0.04015
2.026e+04,0.0408
2.028e+04,0.04145
2.031e+04,0.0421
2.033e+04,0.04275
2.035e+04,0.04339
2.037e+04,0.04403
2.039e+04,0.04467
2.041e+04,0.0453
2.044e+04,0.04594
2.046e+04,0.04657
2.048e+04,0.0472
2.05e+04,0.04783
2.052e+04,0.04845
2.054e+04,0.04907
2.056e+04,0.04969
2.059e+04,0.05031
2.061e+04,0.05092
2.063e+04,0.05153
2.065e+04,0.05214
2.067e+04,0.05275
2.069e+04,0.05335
2.071e+04,0.05396
2.074e+04,0.05455
2.076e+04,0.05515
2.078e+04,0.05574
2.08e+04,0.05633
2.082e+04,0.05692
2.084e+04,0.0575
2.087e+04,0.05808
2.089e+04,0.05866
2.091e+04,0.05924
2.093e+04,0.05981
2.095e+04,0.06038
2.097e+04,0.06095
2.099e+04,0.06151
2.102e+04,0.06207
2.104e+04,0.06263
2.106e+04,0.06318
2.108e+04,0.06373
2.11e+04,0.06428
2.112e+04,0.06482
2.115e+04,0.06536
2.117e+04,0.0659
2.119e+04,0.06644
2.121e+04,0.06697
2.123e+04,0.06749
2.125e+04,0.06802
2.127e+04,0.06854
2.13e+04,0.06905
2.132e+04,0.06957
2.134e+04,0.07008
2.136e+04,0.07058
2.138e+04,0.07109
2.14e+04,0.07159
2.143e+04,0.07208
2.145e+04,0.07257
2.147e+04,0.07306
2.149e+04,0.07355
2.151e+04,0.07403
2.153e+04,0.0745
2.155e+04,0.07498
2.158e+04,0.07545
2.16e+04,0.07591
2.162e+04,0.07638
2.164e+04,0.07683
2.166e+04,0.07729
2.168e+04,0.07774
2.171e+04,0.07818
2.173e+04,0.07863
2.175e+04,0.07906
2.177e+04,0.0795
2.179e+04,0.07993
2.181e+04,0.08035
2.183e+04,0.08078
2.186e+04,0.08119
2.188e+04,0.08161
2.19e+04,0.08202
2.192e+04,0.08242
2.194e+04,0.08282
2.196e+04,0.08322
2.199e+04,0.08361
2.201e+04,0.084
2.203e+04,0.08439
